[[0.4322928786277771, 0.4354938566684723, 0.4307604432106018, 0.4356025159358978, 0.4470825791358948, 0.4328686594963074, 0.43600696325302124, 0.4109577536582947, 0.4079864025115967, 0.38665151596069336, 0.38065943121910095, 0.3822247087955475, 0.37554582953453064, 0.3623800277709961, 0.34345754981040955, 0.34205830097198486, 0.33823028206825256, 0.3170018196105957, 0.3115643858909607, 0.3176146149635315, 0.30784955620765686, 0.29521456360816956, 0.2679053843021393, 0.26721328496932983, 0.2680935263633728, 0.26379841566085815, 0.26408934593200684, 0.25304514169692993, 0.23910346627235413, 0.23139667510986328, 0.228872150182724, 0.22078344225883484, 0.22940392792224884, 0.22902917861938477, 0.23702788352966309, 0.22277458012104034, 0.22066941857337952, 0.24216660857200623, 0.2385951578617096, 0.2422531396150589, 0.2496996372938156, 0.26715126633644104, 0.2717231214046478, 0.31003883481025696, 0.3160468637943268, 0.3084074854850769, 0.3172282576560974, 0.3389125168323517, 0.3685661852359772, 0.42946481704711914, 0.4394257962703705, 0.5181917548179626, 0.7242792844772339, 0.8296278119087219, 0.998369574546814, 1.0, 1.0, 1.0, 0.9489068388938904, 1.0, 1.0, 1.0, 0.9813875555992126, 0.9566634893417358, 0.9783950448036194, 0.9525635838508606, 1.0, 0.9929112195968628, 0.9906962513923645, 0.9972565174102783, 0.9745772480964661, 0.9863035082817078, 0.9862735271453857, 1.0, 0.9812573790550232, 0.9737305641174316, 0.979229748249054, 0.96620774269104, 0.9728565216064453, 0.9561737179756165, 0.9561735391616821, 0.9691625833511353, 0.9590649008750916, 0.9838889837265015, 0.9765424132347107, 0.9784141778945923, 0.9725160598754883, 0.9763016700744629, 0.971796452999115, 0.9763093590736389, 0.9843743443489075, 0.9752129316329956, 0.9853706955909729, 0.9809487462043762, 0.9829565286636353, 0.9812884330749512, 0.9863724112510681, 0.9829767942428589, 0.988909125328064, 0.9917361736297607, 0.9921590685844421, 0.9922937154769897, 0.9921884536743164, 0.992121696472168, 0.9945945739746094, 0.9801784157752991, 0.9919440746307373, 0.9794462323188782, 0.9861493110656738, 0.9863982796669006, 0.9791048169136047, 0.9852674007415771, 0.9821264743804932, 0.9709822535514832, 0.9702315926551819, 0.9727314114570618, 0.9662899971008301, 0.9431913495063782, 0.9321285486221313, 0.9246032238006592, 0.9169185161590576, 0.9152970314025879, 0.8626000285148621, 0.8400753140449524, 0.8289148211479187, 0.8202672004699707, 0.7128363847732544, 0.5601714849472046, 0.47914963960647583, 0.369025856256485, 0.278586208820343, 0.26637834310531616, 0.2507910430431366, 0.16449160873889923, 0.15717428922653198, 0.15529194474220276, 0.15746097266674042, 0.1500064581632614, 0.14245615899562836, 0.11976589262485504, 0.0817292183637619, 0.07721881568431854, 0.055674076080322266, 0.04316406697034836, 0.028047610074281693, 0.018639564514160156, 0.024663114920258522, 0.007746838964521885, 0.0, 0.0010786057682707906, 0.0031232356559485197, 0.0034781931899487972, 0.0178711898624897, 0.01774301379919052, 0.0, 0.0082848547026515, 0.003682612907141447, 0.0, 0.010710478760302067, 0.02269592322409153, 0.013534831814467907, 0.023017406463623047, 0.014796589501202106, 0.00721664447337389, 0.01758561097085476, 0.001945543335750699, 0.005923653021454811, 0.0021501064766198397, 0.007132768630981445, 0.007413101382553577, 0.0017811773577705026, 0.011432742699980736, 0.01802058145403862, 0.020944643765687943, 0.0308977160602808, 0.02241349220275879, 0.030887890607118607, 0.026874113827943802, 0.028470799326896667, 0.017438601702451706, 0.021856212988495827, 0.014776468276977539, 0.015780307352542877, 0.004443692974746227, 0.003081417176872492, 0.013242339715361595, 0.0020050047896802425, 0.0, 0.0, 0.0, 0.0, 0.0, 0.0, 0.0, 0.0, 0.0, 0.0, 0.0, 0.0, 0.0],
[0.0, 0.0, 0.0, 0.0, 0.0, 0.0, 0.0, 0.0, 0.0, 0.0, 0.0, 0.0, 0.0, 0.0, 0.0, 0.0, 0.0, 0.0, 0.0, 0.0, 0.0, 0.0, 0.0, 0.015011357143521309, 0.026496171951293945, 0.027664901688694954, 0.02460341528058052, 0.025120876729488373, 0.024582576006650925, 0.02734418213367462, 0.032660625874996185, 0.05003966763615608, 0.040961407124996185, 0.11439190804958344, 0.16638636589050293, 0.2217724621295929, 0.2462475746870041, 0.3326526880264282, 0.3332088589668274, 0.4033222794532776, 0.5026826858520508, 0.5643961429595947, 0.7175028920173645, 0.8465067744255066, 0.9165274500846863, 0.9370768666267395, 0.9796317219734192, 1.0, 1.0, 1.0, 1.0, 1.0, 0.999749481678009, 1.0, 1.0, 1.0, 0.9838734269142151, 1.0, 0.9826884865760803, 0.9933968782424927, 0.9815000891685486, 1.0, 0.9834470748901367, 0.9829707145690918, 0.9715466499328613, 0.9853558540344238, 0.9832648038864136, 0.9715112447738647, 0.9738285541534424, 0.9801494479179382, 0.9800670742988586, 0.9781988263130188, 0.9718554019927979, 0.9738366603851318, 0.9809533357620239, 0.9861531853675842, 0.9975727200508118, 0.9964753985404968, 1.0, 0.9959144592285156, 1.0, 1.0, 1.0, 0.9954726099967957, 0.9960176348686218, 0.9997060894966125, 1.0, 0.995980441570282, 1.0, 1.0, 1.0, 0.992626428604126, 0.986680269241333, 0.9817795157432556, 0.9925099611282349, 0.9827856421470642, 0.9729577898979187, 0.9534049034118652, 0.9523763060569763, 0.9569806456565857, 0.9597538709640503, 0.9621940851211548, 0.9715812802314758, 0.9681651592254639, 0.9481471180915833, 0.9532104134559631, 0.9311007261276245, 0.8650083541870117, 0.8149577975273132, 0.8149569034576416, 0.7668907046318054, 0.7389496564865112, 0.6362242102622986, 0.5747113823890686, 0.5167583227157593, 0.48646360635757446, 0.3814321458339691, 0.2819911241531372, 0.2514782249927521, 0.2325153946876526, 0.19878460466861725, 0.17530997097492218, 0.1753053218126297, 0.17530067265033722, 0.1607048362493515, 0.13463656604290009, 0.10629197210073471, 0.0691651776432991, 0.05535493046045303, 0.04470887780189514, 0.07787656784057617, 0.08582734316587448, 0.09229931980371475, 0.09756966680288315, 0.09775400161743164, 0.11135248094797134, 0.11949773132801056, 0.12943826615810394, 0.1201145201921463, 0.11368712037801743, 0.12611284852027893, 0.1367035061120987, 0.12959881126880646, 0.12521909177303314, 0.11771945655345917, 0.1269625723361969, 0.12796111404895782, 0.11901162564754486, 0.11137952655553818, 0.09557972848415375, 0.10037288814783096, 0.09387987852096558, 0.08894185721874237, 0.06384425610303879, 0.02687244489789009, 0.03865069895982742, 0.025850821286439896, 0.007679319940507412, 0.0, 0.0, 0.0, 0.0, 0.0, 0.0, 0.0, 0.0, 0.0, 0.0, 0.0, 0.0, 0.0, 0.0, 0.0, 0.0, 0.0, 0.0, 0.0, 0.0, 0.0, 0.0, 0.0, 0.0, 0.0, 0.0, 0.0, 0.0, 0.0, 0.0, 0.01221909373998642, 0.017104053869843483, 0.021077396348118782, 0.025336790829896927, 0.0400240384042263, 0.04353780671954155, 0.044355303049087524, 0.04906177520751953, 0.05195321515202522, 0.04957728460431099, 0.05895920470356941, 0.05363769456744194],
[0.05538086220622063, 1.0, 1.0, 0.9955045580863953, 0.9934777021408081, 1.0, 0.9969826340675354, 0.9950281977653503, 0.9950281381607056, 0.9949602484703064, 0.9928444623947144, 1.0, 0.9973845481872559, 0.9955136179924011, 1.0, 0.9980363845825195, 0.9961713552474976, 1.0, 1.0, 1.0, 1.0, 1.0, 1.0, 1.0, 1.0, 1.0, 1.0, 1.0, 1.0, 0.9900723099708557, 1.0, 1.0, 1.0, 1.0, 1.0, 0.9835989475250244, 0.9595662951469421, 0.9477831721305847, 0.8881279826164246, 0.8687677979469299, 0.8397868275642395, 0.84257572889328, 0.8325008153915405, 0.8076692223548889, 0.7768049240112305, 0.7482972145080566, 0.719942033290863, 0.7232192158699036, 0.7186716794967651, 0.6758922934532166, 0.7536327838897705, 0.7357091903686523, 0.7116460800170898, 0.6953631639480591, 0.6699622869491577, 0.671656608581543, 0.6623252630233765, 0.6460279226303101, 0.7027403116226196, 0.6918482780456543, 0.6856921315193176, 0.6902492046356201, 0.6914399266242981, 0.6917493939399719, 0.6963101029396057, 0.6909013986587524, 0.6865857243537903, 0.6889264583587646, 0.6987665295600891, 0.6988492608070374, 0.6932992339134216, 0.6982465386390686, 0.698019802570343, 0.6935408115386963, 0.6929092407226562, 0.6934094429016113, 0.6938348412513733, 0.690332293510437, 0.6868898272514343, 0.6866598129272461, 0.6940013766288757, 0.6930738687515259, 0.6972009539604187, 0.6965818405151367, 0.6944647431373596, 0.6972329020500183, 0.6932195425033569, 0.6902812123298645, 0.6878235340118408, 0.6819027662277222, 0.6606193780899048, 0.6469162106513977, 0.6305221915245056, 0.5854141116142273, 0.5403421521186829, 0.540340781211853, 0.5194042921066284, 0.46020016074180603, 0.4343797266483307, 0.3585900664329529, 0.3494882583618164, 0.2911982536315918, 0.2611112594604492, 0.22520287334918976, 0.19816294312477112, 0.15753695368766785, 0.13478827476501465, 0.13968515396118164, 0.14378367364406586, 0.12436268478631973, 0.1388770490884781, 0.1445418894290924, 0.14893881976604462, 0.15510980784893036, 0.1609995812177658, 0.15678952634334564, 0.15331882238388062, 0.17977796494960785, 0.19438794255256653, 0.18977664411067963, 0.19317393004894257, 0.18672282993793488, 0.18789027631282806, 0.1825726479291916, 0.1819075644016266, 0.18082799017429352, 0.17664022743701935, 0.17243298888206482, 0.1683560162782669, 0.17099887132644653, 0.1800786554813385, 0.1803087741136551, 0.1836068332195282, 0.17955489456653595, 0.17934629321098328, 0.18244870007038116, 0.18205243349075317, 0.17998573184013367, 0.17681357264518738, 0.16343924403190613, 0.15772657096385956, 0.1633395254611969, 0.14928176999092102, 0.132144957780838, 0.13875412940979004, 0.14647294580936432, 0.141447976231575, 0.14279693365097046, 0.16651487350463867, 0.19179141521453857, 0.18876905739307404, 0.18208777904510498, 0.1781403124332428, 0.18598200380802155, 0.23024186491966248, 0.25197407603263855, 0.28100547194480896, 0.2863088846206665, 0.3102308213710785, 0.3266272246837616, 0.3360303044319153, 0.37640413641929626, 0.38916149735450745, 0.40568605065345764, 0.4178721308708191, 0.4118692874908447, 0.4319538176059723, 0.47049182653427124, 0.516796886920929, 0.5375231504440308, 0.530868649482727, 0.5309299826622009, 0.5463741421699524, 0.5772513747215271, 0.629450798034668, 0.6584616303443909, 0.671343207359314, 0.6705103516578674, 0.6607729196548462, 0.6612109541893005, 0.6886955499649048, 0.6944727897644043, 0.6850573420524597, 0.653962254524231, 0.6381391286849976, 0.6358138918876648, 0.6336382031440735, 0.6318719983100891, 0.6250220537185669, 0.6096279621124268, 0.6254788637161255, 0.6316744089126587, 0.6427692174911499, 0.6654338240623474, 0.6927472949028015, 0.7001680731773376, 0.7113146781921387, 0.7258594036102295, 0.7294843792915344, 0.7276185154914856],
[0.7430294752120972, 0.1704854518175125, 0.16797655820846558, 0.1674138605594635, 0.16052958369255066, 0.15664872527122498, 0.16583794355392456, 0.15567922592163086, 0.157008096575737, 0.13768243789672852, 0.16089513897895813, 0.19567708671092987, 0.24784967303276062, 0.4792812466621399, 0.6542629599571228, 0.9964712262153625, 1.0, 1.0, 1.0, 0.9689764380455017, 0.9948399662971497, 0.9460418820381165, 0.981042742729187, 0.9966771006584167, 1.0, 1.0, 1.0, 0.9775868654251099, 1.0, 0.9805492162704468, 0.9754267930984497, 1.0, 0.9719032645225525, 1.0, 1.0, 0.9930070638656616, 0.9952521920204163, 0.981394350528717, 0.9733003377914429, 0.9769776463508606, 0.9868898391723633, 0.99312424659729, 1.0, 0.9740576148033142, 1.0, 0.9949116706848145, 0.9992988109588623, 1.0, 0.9903297424316406, 1.0, 0.983324408531189, 0.9858911037445068, 0.979899525642395, 0.9816890954971313, 0.9865261316299438, 0.9817731976509094, 0.9826286435127258, 0.9999805092811584, 1.0, 1.0, 1.0, 1.0, 0.9954083561897278, 1.0, 1.0, 1.0, 1.0, 1.0, 1.0, 0.9950605630874634, 1.0, 1.0, 0.9979506134986877, 0.9936736822128296, 0.9954958558082581, 0.9979521632194519, 0.9960499405860901, 0.9911115765571594, 0.9859176278114319, 0.9648991823196411, 0.9553992748260498, 0.9548831582069397, 0.9588231444358826, 0.9570675492286682, 0.9388911724090576, 0.9113621711730957, 0.8136681914329529, 0.7125863432884216, 0.6325448155403137, 0.5460103154182434, 0.5069406628608704, 0.5143439173698425, 0.5143536925315857, 0.5530151128768921, 0.5448393225669861, 0.5429551601409912, 0.5072726011276245, 0.5045194625854492, 0.4886218011379242, 0.4697612524032593, 0.45914116501808167, 0.4621359705924988, 0.4466302692890167, 0.44562259316444397, 0.437337189912796, 0.4347943365573883, 0.43968576192855835, 0.4390772581100464, 0.4441147446632385, 0.4506852924823761, 0.4395429193973541, 0.4382894039154053, 0.4334891438484192, 0.49485334753990173, 0.5005901455879211, 0.49764665961265564, 0.49597471952438354, 0.515017569065094, 0.5150333642959595, 0.5054757595062256, 0.5114043354988098, 0.5140416026115417, 0.5439637303352356, 0.5721476674079895, 0.5801824927330017, 0.5770465731620789, 0.5792713165283203, 0.5680725574493408, 0.5611010789871216, 0.5559630990028381, 0.5297693014144897, 0.5028973817825317, 0.4936150014400482, 0.498505562543869, 0.4849341809749603, 0.4604724943637848, 0.4276648163795471, 0.4135918915271759, 0.4137769341468811, 0.4148758351802826, 0.40595921874046326, 0.4020109474658966, 0.38999536633491516, 0.3797760605812073, 0.38523799180984497, 0.3773476481437683, 0.38157013058662415, 0.3800531029701233, 0.378600537776947, 0.3835045397281647, 0.4016181230545044, 0.4056454598903656, 0.4272671937942505, 0.4294029474258423, 0.4060252904891968, 0.4024008512496948, 0.4016713798046112, 0.3820406496524811, 0.36768409609794617, 0.3694190979003906, 0.36941659450531006, 0.37262970209121704, 0.3440525531768799, 0.36459583044052124, 0.3511354923248291, 0.3651731014251709, 0.36229270696640015, 0.35683125257492065, 0.35242992639541626, 0.352692186832428, 0.3542913794517517, 0.35851016640663147, 0.36411792039871216, 0.36411499977111816, 0.35550859570503235, 0.34697893261909485, 0.35108593106269836, 0.3472693860530853, 0.35202616453170776, 0.3677813410758972, 0.3666945993900299, 0.3580227196216583, 0.3563031852245331, 0.36115533113479614, 0.3598090708255768, 0.37152621150016785, 0.36675208806991577, 0.357699990272522, 0.37178465723991394, 0.35206082463264465, 0.33817484974861145, 0.33581703901290894, 0.3413112163543701, 0.32973283529281616, 0.30391812324523926, 0.2692534625530243, 0.25686517357826233, 0.24189916253089905, 0.26960858702659607, 0.2693256735801697],
[0.272223562002182, 0.3450823724269867, 0.33914801478385925, 0.3527674973011017, 0.3586593270301819, 0.3595353960990906, 0.36903294920921326, 0.3736262619495392, 0.3386179506778717, 0.331697940826416, 0.3340842127799988, 0.32951152324676514, 0.37031203508377075, 0.5312623381614685, 0.5657219290733337, 0.7162415385246277, 0.9729692339897156, 1.0, 1.0, 1.0, 1.0, 1.0, 0.9961009621620178, 1.0, 1.0, 0.9855342507362366, 1.0, 1.0, 1.0, 0.991807758808136, 0.9904486536979675, 0.9984649419784546, 0.9859128594398499, 0.9941359162330627, 0.9905074238777161, 0.9879988431930542, 0.9687613248825073, 0.9795268177986145, 0.9849444031715393, 0.9895384907722473, 0.9840633869171143, 0.9823412895202637, 0.9681883454322815, 0.96863853931427, 0.9656348824501038, 0.9656347632408142, 0.9704843759536743, 0.9792923331260681, 0.9842786192893982, 0.9871505498886108, 0.987774133682251, 0.9862697720527649, 0.9936814308166504, 1.0, 0.9992972016334534, 1.0, 0.9966328740119934, 0.9938074350357056, 0.9896392226219177, 1.0, 1.0, 0.9916971921920776, 0.987952470779419, 0.986344039440155, 0.9897856712341309, 1.0, 1.0, 0.9964917302131653, 0.9948421716690063, 0.995945394039154, 0.9910725355148315, 0.9733495712280273, 0.9762306213378906, 0.9756268858909607, 0.9748461246490479, 0.9716153144836426, 0.9760162234306335, 0.9709141254425049, 0.9666245579719543, 0.9664881825447083, 0.9662123918533325, 0.9618695974349976, 0.9520705938339233, 0.9538715481758118, 0.9454958438873291, 0.9287493228912354, 0.8815236687660217, 0.8025950789451599, 0.7418941259384155, 0.664286196231842, 0.553325355052948, 0.4837684631347656, 0.4503524899482727, 0.41467124223709106, 0.389191597700119, 0.38190391659736633, 0.3968065083026886, 0.39508482813835144, 0.38505733013153076, 0.3503192365169525, 0.3291638493537903, 0.31206014752388, 0.30935731530189514, 0.3012089133262634, 0.28364279866218567, 0.3083847165107727, 0.30735310912132263, 0.29761257767677307, 0.2899940311908722, 0.30473628640174866, 0.30630165338516235, 0.28731316328048706, 0.28524959087371826, 0.28237107396125793, 0.28574681282043457, 0.32136839628219604, 0.3301812708377838, 0.3331802189350128, 0.3601418435573578, 0.3516212999820709, 0.33932191133499146, 0.3207501769065857, 0.31344014406204224, 0.3136320114135742, 0.31195971369743347, 0.31069058179855347, 0.2894693613052368, 0.27124476432800293, 0.26534727215766907, 0.26316529512405396, 0.2596483528614044, 0.2645551860332489, 0.26191335916519165, 0.23475363850593567, 0.21709872782230377, 0.2095101922750473, 0.20034052431583405, 0.2082393616437912, 0.1988006979227066, 0.17911434173583984, 0.17459991574287415, 0.18923571705818176, 0.1859075278043747, 0.19087085127830505, 0.20002073049545288, 0.2012815922498703, 0.20739306509494781, 0.20555542409420013, 0.2054346203804016, 0.19974854588508606, 0.19287289679050446, 0.19228632748126984, 0.1831251084804535, 0.18199215829372406, 0.17572112381458282, 0.1774764358997345, 0.1787223368883133, 0.18191763758659363, 0.18178190290927887, 0.18354623019695282, 0.16677875816822052, 0.15246552228927612, 0.16584090888500214, 0.1634201556444168, 0.17192070186138153, 0.16796588897705078, 0.1663343608379364, 0.14674562215805054, 0.17105641961097717, 0.15913787484169006, 0.14625497162342072, 0.15998002886772156, 0.15751853585243225, 0.166690394282341, 0.16952776908874512, 0.15720409154891968, 0.14814619719982147, 0.14540019631385803, 0.15618500113487244, 0.15112553536891937, 0.14712639153003693, 0.14432525634765625, 0.11425113677978516, 0.10214914381504059, 0.09346704185009003, 0.09589328616857529, 0.08574309200048447, 0.05435248091816902, 0.03461403772234917, 0.023109054192900658, 0.022842025384306908, 0.005977582186460495, 0.0, 0.0, 0.0, 0.0, 0.0, 0.0, 0.0, 0.0],
[0.0, 0.14058466255664825, 0.148010715842247, 0.1502334177494049, 0.1555136889219284, 0.13650965690612793, 0.13696083426475525, 0.13191895186901093, 0.13387390971183777, 0.12297425419092178, 0.10929244756698608, 0.11526302993297577, 0.09592372179031372, 0.09245166927576065, 0.09489301592111588, 0.11483164131641388, 0.12347980588674545, 0.14280705153942108, 0.14081090688705444, 0.13235625624656677, 0.12875105440616608, 0.13383936882019043, 0.140143483877182, 0.13962411880493164, 0.1260957419872284, 0.1112736240029335, 0.1096767783164978, 0.1302788257598877, 0.18071486055850983, 0.22177867591381073, 0.29124048352241516, 0.42013978958129883, 0.7862183451652527, 0.9939648509025574, 1.0, 1.0, 1.0, 1.0, 1.0, 1.0, 1.0, 1.0, 0.9726194739341736, 0.9817585349082947, 0.9819702506065369, 1.0, 1.0, 0.9905529618263245, 1.0, 0.990658700466156, 0.9907889366149902, 0.9786239862442017, 0.9616125822067261, 0.958021879196167, 0.9608826637268066, 0.9501082301139832, 0.9508988857269287, 0.9426177740097046, 0.9444126486778259, 0.9536956548690796, 0.9511634111404419, 0.9506312012672424, 0.9587231278419495, 0.9506708979606628, 0.9509221911430359, 0.946290135383606, 0.9415632486343384, 0.9425035119056702, 0.9381055235862732, 0.9327279329299927, 0.9367609024047852, 0.9392557144165039, 0.9398202300071716, 0.9302270412445068, 0.9380041360855103, 0.9372791051864624, 0.9310521483421326, 0.9363270401954651, 0.9253475666046143, 0.9255879521369934, 0.9124397039413452, 0.9142376184463501, 0.9096657037734985, 0.9088241457939148, 0.904694139957428, 0.9054473042488098, 0.9031210541725159, 0.8932062387466431, 0.8843634128570557, 0.8885825872421265, 0.8857586979866028, 0.8880029916763306, 0.8796233534812927, 0.8820067644119263, 0.8800815939903259, 0.8848587870597839, 0.8841047883033752, 0.8807425498962402, 0.8612115979194641, 0.8385428190231323, 0.8257574439048767, 0.7778922319412231, 0.7332510352134705, 0.6113948225975037, 0.552438497543335, 0.4552541971206665, 0.40389758348464966, 0.3327007293701172, 0.29566633701324463, 0.20555861294269562, 0.17648176848888397, 0.0805027037858963, 0.061980824917554855, 0.03564167022705078, 0.0, 0.0, 0.0, 0.0, 0.0, 0.0, 0.0, 0.0, 0.0, 0.0, 0.0, 0.0, 0.0, 0.0, 0.0, 0.0, 0.0, 0.0, 0.0, 0.0, 0.0, 0.0, 0.0, 0.0, 0.0, 0.0, 0.0, 0.0, 0.0, 0.0, 0.0, 0.0, 0.0, 0.0, 0.0, 0.0, 0.0, 0.0, 0.0, 0.0, 0.005454921163618565, 0.01608743704855442, 0.018209364265203476, 0.022347545251250267, 0.04235982522368431, 0.04330015182495117, 0.05890122056007385, 0.05484123155474663, 0.06722330302000046, 0.08346166461706161, 0.10188780725002289, 0.09214863926172256, 0.09747156500816345, 0.1088259220123291, 0.10198365151882172, 0.08979053795337677, 0.07971905916929245, 0.07719755172729492, 0.08653760701417923, 0.08055772632360458, 0.09294742345809937, 0.09561777114868164, 0.0823959931731224, 0.08185334503650665, 0.08567294478416443, 0.07874941825866699, 0.08140426129102707, 0.07882194221019745, 0.09477028250694275, 0.10959143936634064, 0.11309681832790375, 0.11157932132482529, 0.10975078493356705, 0.11384229362010956, 0.11397949606180191, 0.10020699352025986, 0.08808864653110504, 0.08525843918323517, 0.09478221833705902, 0.11821551620960236, 0.11685889959335327, 0.16032357513904572, 0.1712423413991928, 0.18316368758678436, 0.18433640897274017, 0.17527031898498535],
[0.18395349383354187, 0.21192321181297302, 0.21955187618732452, 0.22562894225120544, 0.22311018407344818, 0.22040300071239471, 0.19771234691143036, 0.2023269683122635, 0.19671300053596497, 0.19469022750854492, 0.18730561435222626, 0.19468292593955994, 0.19424092769622803, 0.2005687654018402, 0.20178605616092682, 0.2017800360918045, 0.2063997983932495, 0.2030899077653885, 0.19575950503349304, 0.18529334664344788, 0.16682495176792145, 0.1667529046535492, 0.1498279720544815, 0.14883717894554138, 0.12881125509738922, 0.12926825881004333, 0.1323041021823883, 0.13442377746105194, 0.13540023565292358, 0.11546497046947479, 0.09752479195594788, 0.09417290985584259, 0.10266417264938354, 0.09564194828271866, 0.10966373234987259, 0.12020859867334366, 0.12832477688789368, 0.16251496970653534, 0.26895231008529663, 0.3347117304801941, 0.3888610601425171, 0.4911683201789856, 0.6867024898529053, 0.7995278239250183, 1.0, 1.0, 1.0, 1.0, 1.0, 1.0, 1.0, 1.0, 1.0, 1.0, 1.0, 1.0, 1.0, 0.9985770583152771, 0.994253933429718, 0.9865937232971191, 0.98634272813797, 0.9937864542007446, 1.0, 1.0, 0.9905129075050354, 0.9745784401893616, 0.9729397892951965, 0.9785174131393433, 0.9781590104103088, 0.9800148010253906, 0.973663866519928, 0.9736101627349854, 0.9752547740936279, 0.9660250544548035, 0.9621018767356873, 0.961988091468811, 0.9672150015830994, 0.9696865081787109, 0.9626338481903076, 0.9744428396224976, 0.9773933291435242, 0.9851682782173157, 0.9809208512306213, 0.9832266569137573, 0.9809247851371765, 0.9832785725593567, 0.9829282760620117, 0.9716310501098633, 0.9705963134765625, 0.9793189167976379, 0.9847257733345032, 0.9824556112289429, 0.9835643172264099, 0.9835931062698364, 0.9837745428085327, 0.9849331974983215, 0.9824715852737427, 0.9794250726699829, 0.9824491143226624, 0.9804122447967529, 0.9751113057136536, 0.9784013628959656, 0.9754095673561096, 0.9806056022644043, 0.9725997447967529, 0.9775155782699585, 0.9747374057769775, 0.9650452136993408, 0.9612798094749451, 0.9380139112472534, 0.9169443845748901, 0.8525885939598083, 0.8121622800827026, 0.7747430801391602, 0.7188295125961304, 0.6073471307754517, 0.49742528796195984, 0.4385901689529419, 0.3971453011035919, 0.37008148431777954, 0.2521258592605591, 0.24426555633544922, 0.20086674392223358, 0.18393976986408234, 0.15265437960624695, 0.17315734922885895, 0.17026306688785553, 0.16411066055297852, 0.13197098672389984, 0.12443666905164719, 0.12249819934368134, 0.13360361754894257, 0.125908762216568, 0.1196841150522232, 0.09237655997276306, 0.09895797073841095, 0.11254150420427322, 0.1082855761051178, 0.11218567937612534, 0.11683513969182968, 0.11626958101987839, 0.11668448895215988, 0.11613581329584122, 0.11165077239274979, 0.11745517700910568, 0.1303839236497879, 0.13164858520030975, 0.14038704335689545, 0.12903150916099548, 0.12881958484649658, 0.12553903460502625, 0.13107828795909882, 0.12339147925376892, 0.1235833540558815, 0.12188360095024109, 0.12494126707315445, 0.11992843449115753, 0.12183961272239685, 0.13143683969974518, 0.1273399144411087, 0.1410825103521347, 0.1384297013282776, 0.14536015689373016, 0.1493046134710312, 0.15483358502388, 0.17746415734291077, 0.19700711965560913, 0.2051578015089035, 0.2037620097398758, 0.22534336149692535, 0.2488975077867508, 0.2512994110584259, 0.25151750445365906, 0.25356775522232056, 0.25129610300064087, 0.2515389025211334, 0.24294380843639374, 0.2544165551662445, 0.26631996035575867, 0.28263306617736816, 0.279368132352829, 0.26583877205848694, 0.27080482244491577, 0.280014306306839, 0.2721177637577057, 0.24354778230190277, 0.24485960602760315, 0.22411933541297913, 0.22549250721931458, 0.22868920862674713, 0.21673975884914398, 0.212175652384758, 0.21419288218021393, 0.19343718886375427, 0.19978678226470947, 0.2064109593629837, 0.20611411333084106, 0.19483210146427155, 0.17328277230262756, 0.1869274079799652],
[0.18375346064567566, 0.10249538719654083, 0.08817090839147568, 0.08587116748094559, 0.08750405162572861, 0.09238338470458984, 0.08735213428735733, 0.08522339910268784, 0.09639020264148712, 0.09490971267223358, 0.09807100147008896, 0.10328739881515503, 0.08129725605249405, 0.08176469802856445, 0.08999919891357422, 0.10562402009963989, 0.10653376579284668, 0.09680433571338654, 0.09795427322387695, 0.09507530927658081, 0.09465432167053223, 0.09816112369298935, 0.0987647995352745, 0.0987587571144104, 0.10702471435070038, 0.07573775947093964, 0.06782259792089462, 0.05439528822898865, 0.0637148842215538, 0.07560000568628311, 0.05330190807580948, 0.06855817139148712, 0.0920296162366867, 0.27659741044044495, 0.42792820930480957, 0.5659071207046509, 0.8112434148788452, 1.0, 0.959936261177063, 1.0, 1.0, 1.0, 1.0, 0.9941612482070923, 1.0, 0.9813136458396912, 1.0, 1.0, 0.9897403120994568, 1.0, 0.9238374829292297, 0.9782253503799438, 0.9508131146430969, 1.0, 0.9833945631980896, 1.0, 0.985575258731842, 1.0, 1.0, 0.998583972454071, 1.0, 0.9999023675918579, 0.9893565773963928, 0.9989613890647888, 1.0, 1.0, 0.9936851263046265, 0.9838615655899048, 0.9961050748825073, 0.9985679984092712, 1.0, 0.9911608099937439, 0.9961113929748535, 0.9981013536453247, 0.9900265336036682, 0.9926339983940125, 0.9943777322769165, 0.9990819692611694, 0.9929935336112976, 0.9954549074172974, 0.9979661107063293, 0.9962390065193176, 1.0, 1.0, 1.0, 1.0, 0.989429235458374, 0.9956997036933899, 0.9990004301071167, 0.9994903206825256, 0.9970271587371826, 1.0, 1.0, 1.0, 0.9979774951934814, 0.9962916374206543, 0.9976276755332947, 0.9931140542030334, 0.9854297041893005, 0.9811439514160156, 0.9808680415153503, 0.9773406982421875, 0.9710696935653687, 0.9614759087562561, 0.9550382494926453, 0.9384777545928955, 0.9126309156417847, 0.8607326149940491, 0.7807559967041016, 0.7198737263679504, 0.7215297222137451, 0.6264733672142029, 0.5868660807609558, 0.5250421166419983, 0.5802586674690247, 0.5408913493156433, 0.5291614532470703, 0.46717825531959534, 0.4569588303565979, 0.4374393820762634, 0.4432114362716675, 0.42904701828956604, 0.4174240529537201, 0.3976520895957947, 0.37584495544433594, 0.3892672657966614, 0.3764426112174988, 0.37609872221946716, 0.37624087929725647, 0.3462259769439697, 0.283684641122818, 0.2810320556163788, 0.2842990458011627, 0.2718985676765442, 0.3034810423851013, 0.3119717240333557, 0.3104349970817566, 0.2864610552787781, 0.27750757336616516, 0.2580062747001648, 0.2652308940887451, 0.26014289259910583, 0.2419978231191635, 0.21180285513401031, 0.19837482273578644, 0.18946363031864166, 0.16643162071704865, 0.1690778285264969, 0.1529843509197235, 0.14825235307216644, 0.17119655013084412, 0.17823725938796997, 0.16788868606090546, 0.17296485602855682, 0.17248010635375977, 0.16608598828315735, 0.15325221419334412, 0.13170519471168518, 0.1299477517604828, 0.13198958337306976, 0.11623792350292206, 0.1089029312133789, 0.0975893959403038, 0.09986008703708649, 0.11146869510412216, 0.09533777087926865, 0.09817304462194443, 0.09904180467128754, 0.10393214225769043, 0.10652780532836914, 0.10546126216650009, 0.10613631457090378, 0.11179790645837784, 0.10215868800878525, 0.08402137458324432, 0.08382263779640198, 0.08129920810461044, 0.09408855438232422, 0.08290543407201767, 0.07415298372507095, 0.05825605243444443, 0.062104322016239166, 0.04781937599182129, 0.04209475964307785, 0.03313436359167099, 0.036090899258852005, 0.041080474853515625, 0.03815116360783577, 0.02118840254843235, 0.03077068366110325, 0.04198269918560982, 0.027571633458137512, 0.010315751656889915, 0.0036215304862707853, 0.0050338744185864925, 0.0, 0.009276007302105427, 0.0009682178497314453, 0.0, 0.0],
[0.0, 0.23623371124267578, 0.23228566348552704, 0.23270225524902344, 0.24397242069244385, 0.2551846504211426, 0.26251113414764404, 0.24025115370750427, 0.25442421436309814, 0.26187410950660706, 0.265846312046051, 0.26058730483055115, 0.26362574100494385, 0.2652207314968109, 0.2644568085670471, 0.26575928926467896, 0.2899631857872009, 0.2997834086418152, 0.30172592401504517, 0.30228978395462036, 0.29350408911705017, 0.3075985908508301, 0.30621039867401123, 0.3250788748264313, 0.33319637179374695, 0.41650646924972534, 1.0, 1.0, 1.0, 1.0, 0.9878961443901062, 1.0, 1.0, 0.9668415784835815, 1.0, 0.9699130654335022, 0.9989122152328491, 1.0, 1.0, 0.9624620079994202, 0.9905624389648438, 0.9880614876747131, 0.9653626084327698, 0.9957485198974609, 0.9760728478431702, 1.0, 1.0, 0.9918938279151917, 0.99177086353302, 0.9965210556983948, 0.9875028729438782, 0.9975510239601135, 1.0, 0.988564670085907, 0.996349573135376, 1.0, 1.0, 1.0, 1.0, 0.9974616169929504, 1.0, 1.0, 1.0, 1.0, 0.9906108975410461, 0.9928823113441467, 0.9935463666915894, 0.9944780468940735, 0.9990420341491699, 0.9974790811538696, 0.9981886148452759, 0.9889670610427856, 0.9792717695236206, 0.9869894981384277, 0.9850557446479797, 0.9793016910552979, 0.9718794226646423, 0.9665595293045044, 0.9644301533699036, 0.9615972638130188, 0.961167573928833, 0.95862877368927, 0.9638059139251709, 0.96064293384552, 0.9632171392440796, 0.9595484733581543, 0.9566630125045776, 0.9566628932952881, 0.9572360515594482, 0.949449360370636, 0.9416278004646301, 0.9376258254051208, 0.9288414716720581, 0.9244968891143799, 0.9173253774642944, 0.915023684501648, 0.8962592482566833, 0.8849903345108032, 0.819130003452301, 0.7436498403549194, 0.633830726146698, 0.6068068146705627, 0.5401222109794617, 0.46485623717308044, 0.41035139560699463, 0.3901418447494507, 0.3254067897796631, 0.26134902238845825, 0.2447461634874344, 0.2404407560825348, 0.22616632282733917, 0.2175174057483673, 0.18512795865535736, 0.19218508899211884, 0.17297956347465515, 0.15907485783100128, 0.14008837938308716, 0.14531980454921722, 0.14318805932998657, 0.14218997955322266, 0.1384122520685196, 0.13203009963035583, 0.13217958807945251, 0.12597675621509552, 0.10808692872524261, 0.10056476294994354, 0.10505779832601547, 0.09672264754772186, 0.10952721536159515, 0.09058336913585663, 0.06962890177965164, 0.06995244324207306, 0.08861685544252396, 0.1054752841591835, 0.0896439477801323, 0.0694124698638916, 0.07263784855604172, 0.10598635673522949, 0.15474890172481537, 0.17366547882556915, 0.17577844858169556, 0.17460103332996368, 0.17831705510616302, 0.21105317771434784, 0.25723087787628174, 0.2680102288722992, 0.2836182415485382, 0.277391254901886, 0.28564542531967163, 0.3047312796115875, 0.30420053005218506, 0.3134933412075043, 0.31919464468955994, 0.31314629316329956, 0.2941536605358124, 0.2907118797302246, 0.26462680101394653, 0.2662467956542969, 0.26493099331855774, 0.252678781747818, 0.2562141716480255, 0.24978303909301758, 0.2576579749584198, 0.26452475786209106, 0.25776904821395874, 0.26236552000045776, 0.25765541195869446, 0.2615744471549988, 0.24529477953910828, 0.23141460120677948, 0.23457162082195282, 0.2362566888332367, 0.2394905388355255, 0.23085527122020721, 0.2246302366256714, 0.22464561462402344, 0.22642910480499268, 0.2191781997680664, 0.22383753955364227, 0.22860869765281677, 0.23281586170196533, 0.22430697083473206, 0.2332901805639267, 0.24639873206615448, 0.24990436434745789, 0.2664420008659363, 0.26548144221305847, 0.25762444734573364, 0.2521715462207794, 0.25801390409469604, 0.2552714943885803, 0.25092267990112305, 0.2627889811992645, 0.26006239652633667, 0.25696903467178345, 0.258882611989975, 0.2618717551231384, 0.2770563066005707, 0.28429725766181946, 0.27922457456588745],
[0.27378779649734497, 0.0, 0.0, 0.0, 0.0, 0.0, 0.0, 0.0, 0.0, 0.0, 0.0, 0.0017638681456446648, 0.010249805636703968, 0.00642166193574667, 0.003530788468196988, 0.0, 0.0, 0.0, 0.0, 0.0, 0.0, 0.0, 0.0, 0.0, 0.0, 0.0, 0.0, 0.0, 0.0, 0.0009696005727164447, 0.0023382664658129215, 0.0031086448580026627, 0.004847288131713867, 0.0298185795545578, 0.03659205511212349, 0.03716493025422096, 0.04945940896868706, 0.044946759939193726, 0.06248655170202255, 0.16123829782009125, 0.3423342704772949, 0.50180983543396, 0.773663341999054, 1.0, 1.0, 1.0, 1.0, 0.9699304103851318, 1.0, 0.9752255082130432, 0.9909504652023315, 1.0, 0.9674422144889832, 1.0, 0.9983721375465393, 1.0, 1.0, 0.9870617985725403, 0.9754548668861389, 0.9817580580711365, 1.0, 1.0, 0.9983815550804138, 0.999054491519928, 0.9976931214332581, 1.0, 0.9982545375823975, 1.0, 1.0, 1.0, 0.9956915378570557, 1.0, 1.0, 0.9882497787475586, 1.0, 0.9948915839195251, 0.9894354343414307, 0.9950352311134338, 0.9891202449798584, 0.9929629564285278, 0.9805386662483215, 0.9893261790275574, 0.9910972714424133, 0.9946718811988831, 0.9943669438362122, 0.9934225678443909, 0.9922301173210144, 0.9891344904899597, 0.989128053188324, 0.9902915954589844, 0.9915894269943237, 0.9947812557220459, 0.99326491355896, 0.9909726977348328, 0.9924257397651672, 0.9974899888038635, 0.9941283464431763, 0.9948626756668091, 0.991631805896759, 0.9768512845039368, 0.9689013361930847, 0.9669860005378723, 0.9655054807662964, 0.962367594242096, 0.9646665453910828, 0.9666836857795715, 0.9626755714416504, 0.9436970949172974, 0.9390043616294861, 0.9392544627189636, 0.9287025332450867, 0.9193320274353027, 0.910210907459259, 0.8327444791793823, 0.7352207899093628, 0.6423505544662476, 0.47366973757743835, 0.3844098150730133, 0.3156003952026367, 0.27712732553482056, 0.2415216714143753, 0.20620664954185486, 0.185958132147789, 0.15782636404037476, 0.1472272127866745, 0.1491832733154297, 0.14877910912036896, 0.12781015038490295, 0.09050672501325607, 0.0572345033288002, 0.02605826035141945, 0.03377571702003479, 0.03672236204147339, 0.025812074542045593, 0.027965160086750984, 0.011723566800355911, 0.007073688320815563, 0.017542647197842598, 0.01827383041381836, 0.021067049354314804, 0.021976660937070847, 0.0043509481474757195, 0.0, 0.0, 0.0, 0.0, 0.0, 0.0, 0.0, 0.0, 0.0, 0.0, 0.0, 0.0, 0.0, 0.0, 0.0, 0.0, 0.0, 0.0, 0.0, 0.00017743109492585063, 0.0, 0.004812335595488548, 0.0028679370880126953, 0.0, 0.015793370082974434, 0.01580352708697319, 0.015717316418886185, 0.019403886049985886, 0.03475803881883621, 0.034368276596069336, 0.03496833145618439, 0.030675506219267845, 0.02146315388381481, 0.018593406304717064, 0.026857951655983925, 0.010852336883544922, 0.0014107702299952507, 0.0, 0.0, 0.0, 0.0, 0.0, 0.0, 0.0, 0.0, 0.0, 0.0, 0.0, 0.0, 0.0, 0.0, 0.0, 0.0, 0.0, 0.0, 0.0, 0.0, 0.0],
[0.0, 0.0, 0.0, 0.0, 0.0, 0.0, 0.0, 0.0, 0.0, 0.0, 0.0, 0.0, 0.0, 0.0, 0.0, 0.0, 0.0, 0.0, 0.0, 0.0, 0.0, 0.0, 0.0, 0.0, 0.0, 0.0, 0.0, 0.0, 0.0, 0.0, 0.0, 0.0, 0.0, 0.0, 0.0, 0.0, 0.0, 0.0, 0.0, 0.0, 0.0, 0.0, 0.0, 0.0, 0.0, 0.0, 0.0, 0.0, 0.0, 0.0, 0.0, 0.0, 0.0, 0.0, 0.0, 0.0, 0.0, 0.0, 0.037065599113702774, 0.06217370182275772, 0.09496279805898666, 0.09050188213586807, 0.10426777601242065, 0.13053016364574432, 0.15359927713871002, 0.20403023064136505, 0.21876227855682373, 0.22621116042137146, 0.21764270961284637, 0.2217048704624176, 0.24316756427288055, 0.2895980775356293, 0.30407699942588806, 0.3235793113708496, 0.31580033898353577, 0.33401498198509216, 0.3479015827178955, 0.3627900183200836, 0.3685089647769928, 0.3556334376335144, 0.356937438249588, 0.35727816820144653, 0.3608643114566803, 0.36436977982521057, 0.36709389090538025, 0.3602886199951172, 0.355552077293396, 0.35490503907203674, 0.36775344610214233, 0.3659135699272156, 0.35426297783851624, 0.3519517779350281, 0.3476998805999756, 0.35035020112991333, 0.35555607080459595, 0.35537195205688477, 0.3538109064102173, 0.35430097579956055, 0.35467982292175293, 0.36025571823120117, 0.3539135456085205, 0.35084906220436096, 0.3636184334754944, 0.36173686385154724, 0.36006081104278564, 0.3437858521938324, 0.34140440821647644, 0.33239316940307617, 0.343180775642395, 0.35464468598365784, 0.3576640784740448, 0.35846948623657227, 0.3618249297142029, 0.3686036169528961, 0.3763894736766815, 0.37837648391723633, 0.3915494382381439, 0.3902907371520996, 0.38903701305389404, 0.38181430101394653, 0.3748835027217865, 0.38557976484298706, 0.3909483551979065, 0.375222772359848, 0.3711881935596466, 0.37107905745506287, 0.37595421075820923, 0.36862650513648987, 0.36362650990486145, 0.341712087392807, 0.30333173274993896, 0.27025002241134644, 0.2528924345970154, 0.2453509271144867, 0.23243176937103271, 0.20351973176002502, 0.17378199100494385, 0.1320018768310547, 0.0956382155418396, 0.08915867656469345, 0.08906298875808716, 0.07540283352136612, 0.04598979651927948, 0.0, 0.0, 0.0, 0.0, 0.0, 0.0, 0.0, 0.0, 0.0, 0.0, 0.0, 0.0, 0.0, 0.0, 0.0, 0.0, 0.0, 0.0, 0.0, 0.0, 0.0, 0.0, 0.0, 0.0, 0.0, 0.0, 0.0, 0.0, 0.0, 0.0, 0.0, 0.0, 0.0, 0.0, 0.0, 0.0, 0.0, 0.0, 0.0, 0.0, 0.0, 0.0, 0.0, 0.0, 0.0, 0.0, 0.0, 0.0, 0.0, 0.0, 0.0, 0.0, 0.0, 0.0, 0.0, 0.0, 0.0],
[0.0, 0.0, 0.0, 0.0, 0.0, 0.0, 0.0, 0.0, 0.0, 0.0, 0.0, 0.0, 0.0, 0.0, 0.0, 0.0, 0.0, 0.0, 0.0, 0.0, 0.0, 0.0, 0.0, 0.0, 0.0, 0.0, 0.0, 0.0, 0.0, 0.0, 0.0, 0.0, 0.0, 0.0, 0.0, 0.0, 0.0, 0.0, 0.0, 0.0, 0.0, 0.0, 0.0, 0.0, 0.0, 0.0, 0.0, 0.0, 0.0, 0.0, 0.0, 0.0, 0.0, 0.0, 0.0, 0.0, 0.0, 0.0, 0.0, 0.0, 0.0, 0.0, 0.0, 0.0, 0.0, 0.0, 0.0, 0.0, 0.0, 0.0, 0.0, 0.0, 0.0, 0.0, 0.0, 0.0, 0.0, 0.0, 0.0, 0.0, 0.0, 0.0, 0.0, 0.0, 0.0, 0.0, 0.0, 0.0, 0.0, 0.0, 0.0, 0.0, 0.0, 0.0, 0.0, 0.0, 0.0, 0.0, 0.0, 0.0, 0.0, 0.0, 0.0, 0.0, 0.0, 0.0, 0.0, 0.0, 0.0, 0.0, 0.0, 0.0, 0.0, 0.0, 0.0, 0.0, 0.0, 0.0, 0.0, 0.0, 0.0, 0.0, 0.0, 0.0, 0.0, 0.0, 0.0, 0.0, 0.0, 0.0, 0.0, 0.0, 0.0, 0.0, 0.0, 0.0, 0.0, 0.0, 0.0, 0.0, 0.0, 0.0, 0.0, 0.0, 0.0, 0.0, 0.0, 0.0, 0.0, 0.0, 0.0, 0.0, 0.0, 0.0, 0.0, 0.0, 0.0, 0.0, 0.0, 0.0, 0.0, 0.0, 0.0, 0.0, 0.0, 0.0, 0.0, 0.0, 0.0, 0.0, 0.0, 0.0, 0.0, 0.0, 0.0, 0.0, 0.0, 0.0, 0.0, 0.0, 0.0, 0.0, 0.0, 0.0, 0.0, 0.0, 0.0, 0.0, 0.0, 0.0, 0.0, 0.0, 0.0, 0.0, 0.0, 0.0, 0.0, 0.0, 0.0, 0.0],
[0.0, 0.0, 0.0, 0.0, 0.0, 0.0, 0.0, 0.0, 0.0, 0.0, 0.0, 0.0, 0.0, 0.0, 0.0, 0.0, 0.0, 0.0, 0.0, 0.0, 0.0, 0.0, 0.0, 0.0, 0.0, 0.0, 0.0, 0.0, 0.0, 0.0, 0.0, 0.0, 0.0, 0.0, 0.0, 0.0, 0.0, 0.0, 0.0, 0.0, 0.0, 0.0, 0.0, 0.0, 0.0, 0.0, 0.0, 0.0, 0.0, 0.0, 0.0, 0.0, 0.0, 0.0, 0.0, 0.0, 0.0, 0.0, 0.0, 0.0, 0.0, 0.0, 0.0, 0.0, 0.0, 0.0, 0.0, 0.0, 0.0, 0.0, 0.0, 0.0, 0.0, 0.0, 0.0, 0.0, 0.0, 0.0, 0.0, 0.0, 0.0, 0.0, 0.0, 0.0, 0.0, 0.0, 0.0, 0.0, 0.0, 0.0, 0.0, 0.0, 0.0, 0.0, 0.0, 0.0, 0.0, 0.0, 0.0, 0.0, 0.0, 0.0, 0.0, 0.0, 0.0, 0.0, 0.0, 0.0, 0.0, 0.0, 0.0, 0.0, 0.0, 0.0, 0.0, 0.0, 0.0, 0.0, 0.0, 0.0, 0.0, 0.0, 0.0, 0.0, 0.0, 0.0, 0.0, 0.0, 0.0, 0.0, 0.0, 0.0, 0.0, 0.0, 0.0, 0.0, 0.0, 0.0, 0.0, 0.0, 0.0, 0.0, 0.0, 0.0, 0.0, 0.0, 0.0, 0.0, 0.0, 0.0, 0.0, 0.0, 0.0, 0.0, 0.0, 0.0, 0.0, 0.0, 0.0, 0.0, 0.0, 0.0, 0.0, 0.0, 0.0, 0.0, 0.0, 0.0, 0.0, 0.0, 0.0, 0.0, 0.0, 0.0, 0.0, 0.0, 0.0, 0.0, 0.0, 0.0, 0.0, 0.0, 0.0, 0.0, 0.0, 0.0, 0.0, 0.0, 0.0, 0.0, 0.0, 0.0, 0.0, 0.0, 0.0, 0.0, 0.0, 0.0, 0.0, 0.0],
[0.0, 0.17440861463546753, 0.1668827086687088, 0.1496848315000534, 0.14609794318675995, 0.15695936977863312, 0.1550779789686203, 0.15706340968608856, 0.16323094069957733, 0.16457007825374603, 0.16993102431297302, 0.17344166338443756, 0.1718945950269699, 0.16844132542610168, 0.16079172492027283, 0.1332913041114807, 0.12340565025806427, 0.11843995004892349, 0.10506291687488556, 0.08596716821193695, 0.06776156276464462, 0.05269736796617508, 0.04238329082727432, 0.04544854536652565, 0.0415765754878521, 0.036577317863702774, 0.031079530715942383, 0.019010497257113457, 0.003256130265071988, 0.0, 0.0, 0.0, 0.0, 0.0, 0.0, 0.0, 0.0, 0.0, 0.0, 0.0, 0.0004918574704788625, 0.0, 0.0, 0.0, 0.0, 0.0, 0.0, 0.0, 0.0, 0.0, 0.0, 0.0, 0.0, 0.0, 0.0, 0.0, 0.0, 0.0, 0.0, 0.0, 0.0, 0.0, 0.0, 0.0, 0.0, 0.0, 0.0, 0.0, 0.0, 0.0, 0.0, 0.0, 0.0, 0.0, 0.0, 0.0, 0.0, 0.0, 0.0, 0.0, 0.0, 0.0, 0.0, 0.0, 0.0, 0.0, 0.0, 0.0, 0.0, 0.0, 0.0, 0.0, 0.0, 0.0, 0.0, 0.0, 0.0, 0.0, 0.0, 0.0, 0.0, 0.0, 0.0, 0.0, 0.0, 0.0, 0.0, 0.0, 0.0, 0.0, 0.0, 0.0, 0.0, 0.0, 0.0, 0.0, 0.0, 0.0, 0.0, 0.0, 0.0, 0.0, 0.0, 0.0, 0.0, 0.0, 0.0, 0.0, 0.0, 0.0, 0.0, 0.0, 0.0, 0.0, 0.0, 0.0, 0.0, 0.0, 0.0, 0.0, 0.0, 0.0, 0.0, 0.0, 0.0, 0.0, 0.0, 0.0, 0.0, 0.0, 0.0, 0.0, 0.0, 0.0, 0.0, 0.0, 0.0, 0.0, 0.0, 0.0, 0.0, 0.0, 0.0, 0.0, 0.0, 0.0, 0.0, 0.0, 0.0, 0.0, 0.0, 0.0, 0.0, 0.0, 0.0, 0.0, 0.0, 0.0, 0.0, 0.0, 0.0, 0.0, 0.0, 0.006091689690947533, 0.011295700445771217, 0.01153349969536066, 0.0265963077545166, 0.03012208640575409, 0.029321718961000443, 0.04003014788031578, 0.03802995756268501, 0.0403287373483181, 0.05259351804852486, 0.06419749557971954, 0.0715341567993164, 0.07428617030382156, 0.08138871192932129, 0.08400264382362366, 0.07970190048217773, 0.07693075388669968],
[0.08119554817676544, 0.015827655792236328, 0.022243455052375793, 0.022141361609101295, 0.011115215718746185, 0.0002471923944540322, 0.0, 0.0, 0.0, 0.0, 0.0, 0.0, 0.0, 0.0, 0.0, 0.0, 0.0, 0.0, 0.0, 0.0, 0.0, 0.0, 0.0, 0.0, 0.0, 0.0, 0.0, 0.0, 0.0, 0.0, 0.0, 0.0, 0.0, 0.0, 0.0, 0.0, 0.0, 0.0, 0.0, 0.0, 0.0, 0.0, 0.0, 0.0, 0.0, 0.0, 0.0, 0.0, 0.0, 0.0, 0.0, 0.0, 0.0, 0.0, 0.0, 0.0, 0.0, 0.0, 0.0, 0.0, 0.0, 0.0, 0.0, 0.0, 0.0, 0.0, 0.0, 0.0, 0.0, 0.0, 0.0, 0.0, 0.0, 0.0, 0.0, 0.0, 0.0, 0.0, 0.0, 0.0, 0.0, 0.0, 0.0, 0.0, 0.0, 0.0, 0.0, 0.0, 0.0, 0.0, 0.0, 0.0, 0.0, 0.0, 0.0, 0.0, 0.0, 0.0, 0.0, 0.0, 0.0, 0.0, 0.0, 0.0, 0.0, 0.0, 0.0, 0.0, 0.0, 0.0, 0.0, 0.0, 0.0, 0.0, 0.0, 0.0, 0.0, 0.0, 0.0, 0.0, 0.0, 0.0, 0.0, 0.0, 0.0, 0.0, 0.0, 0.0, 0.0, 0.0, 0.0, 0.0, 0.0, 0.0, 0.0, 0.0, 0.0, 0.0, 0.0, 0.0, 0.0, 0.0, 0.0, 0.0, 0.0, 0.0, 0.0, 0.0, 0.0, 0.0, 0.0, 0.0, 0.0, 0.0, 0.0, 0.0, 0.0, 0.0, 0.0, 0.0, 0.0, 0.0, 0.0, 0.0, 0.0, 0.0, 0.0, 0.0, 0.0, 0.0, 0.0, 0.0, 0.0, 0.0, 0.0, 0.0, 0.0, 0.0, 0.0, 0.0, 0.0, 0.0, 0.0, 0.0, 0.0, 0.0, 0.0, 0.0, 0.0, 0.0, 0.0, 0.0, 0.0, 0.0, 0.0, 0.0, 0.0, 0.0, 0.0, 0.0],
[0.0, 0.0, 0.0, 0.0, 0.0, 0.0, 0.0, 0.0, 0.0, 0.0, 0.0, 0.0, 0.0, 0.0, 0.0, 0.0, 0.0, 0.0, 0.0, 0.0, 0.0, 0.0, 0.0, 0.0, 0.0, 0.0, 0.0, 0.0, 0.0, 0.0, 0.0, 0.0, 0.0, 0.0, 0.0, 0.0, 0.0, 0.0, 0.0, 0.0, 0.0, 0.0, 0.0, 0.0, 0.0, 0.0, 0.0, 0.0, 0.0, 0.0, 0.0, 0.0, 0.0, 0.0, 0.0, 0.0, 0.0, 0.0, 0.0, 0.0, 0.0, 0.0, 0.0, 0.0, 0.0, 0.0, 0.0, 0.0, 0.0, 0.0, 0.0, 0.0, 0.0, 0.0, 0.0, 0.0, 0.0, 0.0, 0.0, 0.0, 0.0, 0.0, 0.0, 0.0, 0.0, 0.0, 0.0, 0.0, 0.0, 0.0, 0.0, 0.0, 0.0, 0.0, 0.0, 0.0, 0.0, 0.0, 0.0, 0.0, 0.0, 0.0, 0.0, 0.0, 0.0, 0.0, 0.0, 0.0, 0.0, 0.0, 0.0, 0.0, 0.0, 0.0, 0.0, 0.0, 0.0, 0.0, 0.0, 0.0, 0.0, 0.0, 0.0, 0.0, 0.0, 0.0, 0.0, 0.0, 0.0, 0.0, 0.0, 0.0, 0.0, 0.0, 0.0, 0.0, 0.0, 0.0, 0.0, 0.0, 0.0, 0.0, 0.0, 0.0, 0.0, 0.0, 0.0, 0.0, 0.0, 0.0, 0.0, 0.0, 0.0, 0.0, 0.0, 0.0, 0.0, 0.0, 0.0, 0.0, 0.0, 0.0, 0.0, 0.0, 0.0, 0.0, 0.0, 0.0, 0.0, 0.0, 0.0, 0.0, 0.0, 0.0, 0.0, 0.0, 0.0, 0.0, 0.0, 0.0, 0.0, 0.0, 0.0, 0.0, 0.0, 0.0, 0.0, 0.0, 0.0, 0.0, 0.0, 0.0, 0.0, 0.0, 0.0, 0.0, 0.0, 0.0, 0.0, 0.0],
[0.0, 0.0, 0.0, 0.0, 0.0, 0.0, 0.0, 0.0, 0.0, 0.0, 0.0, 0.0, 0.0, 0.0, 0.0, 0.0, 0.0, 0.0, 0.0, 0.0, 0.0, 0.0, 0.0, 0.0, 0.0, 0.0, 0.0, 0.0, 0.0, 0.0, 0.0, 0.0, 0.0, 0.0, 0.0, 0.0, 0.0, 0.0, 0.0, 0.0, 0.0, 0.0, 0.0, 0.0, 0.0, 0.0, 0.0, 0.0, 0.0, 0.0, 0.0, 0.0, 0.0, 0.0, 0.0, 0.0, 0.0, 0.0, 0.0, 0.0, 0.0, 0.0, 0.0, 0.0, 0.0, 0.0, 0.0, 0.0, 0.0, 0.0, 0.0, 0.0, 0.0, 0.0, 0.0, 0.0, 0.0, 0.0, 0.0, 0.0, 0.0, 0.0, 0.0, 0.0, 0.0, 0.0, 0.0, 0.0, 0.0, 0.0, 0.0, 0.0, 0.0, 0.0, 0.0, 0.0, 0.0, 0.0, 0.0, 0.0, 0.0, 0.0, 0.0, 0.0, 0.0, 0.0, 0.0, 0.0, 0.0, 0.0, 0.0, 0.0, 0.0, 0.0, 0.0, 0.0, 0.0, 0.0, 0.0, 0.0, 0.0, 0.0, 0.0, 0.0, 0.0, 0.0, 0.0, 0.0, 0.0, 0.0, 0.0, 0.0, 0.0, 0.0, 0.0, 0.0, 0.0, 0.0, 0.0, 0.0, 0.0, 0.0, 0.0, 0.0, 0.0, 0.0, 0.0, 0.0, 0.0, 0.0, 0.0, 0.0, 0.0, 0.0, 0.0, 0.0, 0.0, 0.0, 0.0, 0.0, 0.0, 0.0, 0.0, 0.0, 0.0, 0.0, 0.0, 0.0, 0.0, 0.0, 0.0, 0.0, 0.0, 0.0, 0.0, 0.0, 0.0, 0.0, 0.0, 0.0, 0.0, 0.0, 0.0, 0.0, 0.0, 0.0, 0.0, 0.0, 0.0, 0.0, 0.0, 0.0, 0.0, 0.0, 0.0, 0.0, 0.0, 0.0, 0.0, 0.0],
[0.0, 0.0, 0.0, 0.0, 0.0, 0.0, 0.0, 0.0, 0.0, 0.0, 0.0, 0.0, 0.0, 0.0, 0.0, 0.0, 0.0, 0.0, 0.0, 0.0, 0.0, 0.0, 0.0, 0.0, 0.0, 0.0, 0.0, 0.0, 0.0, 0.0, 0.0, 0.0, 0.0, 0.0, 0.0, 0.0, 0.0, 0.0, 0.0, 0.0, 0.0, 0.0, 0.0, 0.0, 0.0, 0.0, 0.0, 0.0, 0.0, 0.0, 0.0, 0.0, 0.0, 0.0, 0.0, 0.0, 0.0, 0.0, 0.0, 0.0, 0.0, 0.0, 0.0, 0.0, 0.0, 0.0, 0.0, 0.0, 0.0, 0.0, 0.0, 0.0, 0.0, 0.0, 0.0, 0.0, 0.0, 0.0, 0.0, 0.0, 0.0, 0.0, 0.0, 0.0, 0.0, 0.0, 0.0, 0.0, 0.0, 0.0, 0.0, 0.0, 0.0, 0.0, 0.0, 0.0, 0.0, 0.0, 0.0, 0.0, 0.0, 0.0, 0.0, 0.0, 0.0, 0.0, 0.0, 0.0, 0.0, 0.0, 0.0, 0.0, 0.0, 0.0, 0.0, 0.0, 0.0, 0.0, 0.0, 0.0, 0.0, 0.0, 0.0, 0.0, 0.0, 0.0, 0.0, 0.0, 0.0, 0.0, 0.0, 0.0, 0.0, 0.0, 0.0, 0.0, 0.0, 0.0, 0.0, 0.0, 0.0, 0.0, 0.0, 0.0, 0.0, 0.0, 0.0, 0.0, 0.0, 0.0, 0.0, 0.0, 0.0, 0.0, 0.0, 0.0, 0.0, 0.0, 0.0, 0.0, 0.0, 0.0, 0.0, 0.0, 0.0, 0.0, 0.0, 0.0, 0.0, 0.0, 0.0, 0.0, 0.0, 0.0, 0.0, 0.0, 0.0, 0.0, 0.0, 0.0, 0.0, 0.0, 0.0, 0.0, 0.0, 0.0, 0.0, 0.0, 0.0, 0.0, 0.0, 0.0, 0.0, 0.0, 0.0, 0.0, 0.0, 0.0, 0.0, 0.0],
[0.0, 0.0, 0.0, 0.0, 0.0, 0.0, 0.0, 0.0, 0.0, 0.0, 0.0, 0.0, 0.0, 0.0, 0.0, 0.0, 0.0, 0.0, 0.0, 0.0, 0.0, 0.0, 0.0, 0.0, 0.0, 0.0, 0.0, 0.0, 0.0, 0.0, 0.0, 0.0, 0.0, 0.0, 0.0, 0.0, 0.0, 0.0, 0.0, 0.0, 0.0, 0.0, 0.0, 0.0, 0.0, 0.0, 0.0, 0.0, 0.0, 0.0, 0.0, 0.0, 0.0, 0.0, 0.0, 0.0, 0.0, 0.0, 0.0, 0.0, 0.0, 0.0, 0.0, 0.0, 0.0, 0.0, 0.0, 0.0, 0.0, 0.0, 0.0, 0.0, 0.0, 0.0, 0.0, 0.0, 0.0, 0.0, 0.0, 0.0, 0.0, 0.0, 0.0, 0.0, 0.0, 0.0, 0.0, 0.0, 0.0, 0.0, 0.0, 0.0, 0.0, 0.0, 0.0, 0.0, 0.0, 0.0, 0.0, 0.0, 0.0, 0.0, 0.0, 0.0, 0.0, 0.0, 0.0, 0.02289857715368271, 0.01627025566995144, 0.03872571513056755, 0.04296417161822319, 0.05938934534788132, 0.06589598953723907, 0.07602215558290482, 0.0902276486158371, 0.09897541254758835, 0.09948702156543732, 0.11212116479873657, 0.13568362593650818, 0.13984297215938568, 0.15689067542552948, 0.15356795489788055, 0.15116076171398163, 0.15134571492671967, 0.1600871980190277, 0.16775748133659363, 0.1770707070827484, 0.17898410558700562, 0.1778244525194168, 0.16913682222366333, 0.16334624588489532, 0.1824374943971634, 0.18443135917186737, 0.1738237589597702, 0.1679573506116867, 0.1672891527414322, 0.17584052681922913, 0.17882420122623444, 0.1871497631072998, 0.18448752164840698, 0.1942625492811203, 0.1977931261062622, 0.19727182388305664, 0.19906213879585266, 0.19549083709716797, 0.19400760531425476, 0.19227424263954163, 0.1842353641986847, 0.1780724972486496, 0.17866981029510498, 0.18294672667980194, 0.18147428333759308, 0.18386583030223846, 0.17615434527397156, 0.16838927567005157, 0.1690472960472107, 0.17382220923900604, 0.17025791108608246, 0.17053666710853577, 0.1679971069097519, 0.16759705543518066, 0.16523215174674988, 0.1649923324584961, 0.16035602986812592, 0.15698151290416718, 0.15393659472465515, 0.15048818290233612, 0.14395731687545776, 0.13967899978160858, 0.1442379653453827, 0.13840584456920624, 0.12207402288913727, 0.09856162220239639, 0.09855562448501587, 0.058217525482177734, 0.04158458486199379, 0.04060988500714302, 0.03382411226630211, 0.019977997988462448, 0.0, 0.0, 0.0, 0.0, 0.0, 0.0, 0.0, 0.0, 0.0, 0.0, 0.0, 0.0, 0.0, 0.0, 0.0, 0.0, 0.0, 0.0, 0.0, 0.0, 0.0],
[0.0, 0.0, 0.0, 0.0, 0.0, 0.0, 0.0, 0.0, 0.0, 0.0, 0.0, 0.0, 0.0, 0.0, 0.0, 0.0, 0.0, 0.0, 0.0, 0.0, 0.0, 0.0, 0.0, 0.0, 0.0, 0.0, 0.0, 0.0, 0.0, 0.0, 0.0, 0.0, 0.0, 0.0, 0.0, 0.0, 0.0, 0.0, 0.0, 0.0, 0.0, 0.0, 0.0, 0.0, 0.0, 0.0, 0.0, 0.0, 0.0, 0.0, 0.0, 0.0, 0.0, 0.0, 0.0, 0.0, 0.0, 0.0, 0.0, 0.0, 0.0, 0.0, 0.0, 0.0, 0.0, 0.0, 0.0, 0.0, 0.0, 0.0, 0.0, 0.0, 0.0, 0.0, 0.0, 0.0, 0.0, 0.0, 0.0, 0.0, 0.0, 0.0, 0.0, 0.0, 0.0, 0.0, 0.0, 0.0, 0.0, 0.0, 0.0, 0.0, 0.0, 0.0, 0.0, 0.0, 0.0, 0.0, 0.0, 0.0, 0.0, 0.0, 0.0, 0.0, 0.0, 0.0, 0.0, 0.0, 0.0, 0.0, 0.0, 0.0, 0.0, 0.0, 0.0, 0.0, 0.0, 0.0, 0.0, 0.0, 0.0, 0.0, 0.0, 0.0, 0.0, 0.0, 0.0, 0.0, 0.0, 0.0, 0.0, 0.0, 0.0, 0.0, 0.0, 0.0, 0.0, 0.0, 0.0, 0.0, 0.0, 0.0, 0.0, 0.0, 0.0, 0.0, 0.0, 0.0, 0.0, 0.0, 0.0, 0.0, 0.0, 0.0, 0.0, 0.0, 0.0, 0.0, 0.0, 0.0, 0.0, 0.0, 0.0, 0.0, 0.0, 0.0, 0.0, 0.0, 0.0, 0.0, 0.0, 0.0, 0.0, 0.0, 0.0, 0.0, 0.0, 0.0, 0.0, 0.0, 0.0, 0.0, 0.0, 0.0, 0.0, 0.0, 0.0, 0.0, 0.0, 0.0, 0.0, 0.0, 0.0, 0.0, 0.0, 0.0, 0.0, 0.0, 0.0, 0.0],
[0.0, 0.0, 0.0, 0.0, 0.0, 0.0, 0.0, 0.0, 0.0, 0.0, 0.0, 0.0, 0.0, 0.0, 0.0, 0.0, 0.0, 0.0, 0.0, 0.0, 0.0, 0.0, 0.0, 0.0, 0.0, 0.0, 0.0, 0.0, 0.0, 0.0, 0.0, 0.0, 0.0, 0.0, 0.0, 0.0, 0.0, 0.0, 0.0, 0.0, 0.0, 0.0, 0.0, 0.0, 0.0, 0.0, 0.0, 0.0, 0.0, 0.0, 0.0, 0.0, 0.0, 0.0, 0.0, 0.0, 0.0, 0.0, 0.0, 0.0, 0.0, 0.0, 0.0, 0.0, 0.0, 0.0, 0.0, 0.0, 0.0, 0.0, 0.0, 0.0, 0.0, 0.0, 0.0, 0.0, 0.0, 0.0, 0.0, 0.0, 0.0, 0.0, 0.0, 0.0, 0.0, 0.0, 0.0, 0.0, 0.0, 0.0, 0.0, 0.0, 0.0, 0.0, 0.0, 0.0, 0.0, 0.0, 0.0, 0.0, 0.0, 0.0, 0.0, 0.0, 0.0, 0.0, 0.0, 0.0, 0.0, 0.0, 0.0, 0.0, 0.0, 0.0, 0.0, 0.0, 0.0, 0.0, 0.0, 0.0, 0.0, 0.0, 0.0, 0.0, 0.0, 0.0, 0.0, 0.0, 0.0, 0.0, 0.0, 0.0, 0.0, 0.0, 0.0, 0.0, 0.0, 0.0, 0.0, 0.0, 0.0, 0.0, 0.0, 0.0, 0.0, 0.0, 0.0, 0.0, 0.0, 0.0, 0.0, 0.0, 0.0, 0.0, 0.0, 0.0, 0.0, 0.0, 0.0, 0.0, 0.0, 0.0, 0.0, 0.0, 0.0, 0.0, 0.0, 0.0, 0.0, 0.0, 0.0, 0.0, 0.0, 0.0, 0.0, 0.0, 0.0, 0.0, 0.0, 0.0, 0.0, 0.0, 0.0, 0.0, 0.0, 0.0, 0.0, 0.0, 0.0, 0.0, 0.0, 0.0, 0.0, 0.0, 0.0, 0.0, 0.0, 0.0, 0.0, 0.0],
[0.0, 0.0, 0.0, 0.0, 0.0, 0.0, 0.0, 0.0, 0.0, 0.0, 0.0, 0.0, 0.0, 0.0, 0.0, 0.0, 0.0, 0.0, 0.0, 0.0, 0.0, 0.0, 0.0, 0.0, 0.0, 0.0, 0.0, 0.0, 0.0, 0.0, 0.0, 0.0, 0.0, 0.0, 0.0, 0.0, 0.0, 0.0, 0.0, 0.0, 0.0, 0.0, 0.0, 0.0, 0.0, 0.0, 0.0, 0.0, 0.0, 0.0, 0.0, 0.0, 0.0, 0.0, 0.0, 0.0, 0.0, 0.0, 0.0, 0.0, 0.0, 0.0, 0.0, 0.0, 0.0, 0.0, 0.0, 0.0, 0.0, 0.0, 0.0, 0.0, 0.0, 0.0, 0.0, 0.0, 0.0, 0.0, 0.0, 0.0, 0.0, 0.0, 0.0, 0.0, 0.0, 0.0, 0.0, 0.0, 0.0, 0.0, 0.0, 0.0, 0.0, 0.0, 0.0, 0.0, 0.0, 0.0, 0.0, 0.0, 0.0, 0.0, 0.0, 0.0, 0.0, 0.0, 0.0, 0.0, 0.0, 0.0, 0.0, 0.0, 0.0, 0.0, 0.0, 0.0, 0.0, 0.0, 0.0, 0.0, 0.0, 0.0, 0.0, 0.0, 0.0, 0.0, 0.0, 0.0, 0.0, 0.0, 0.0, 0.0, 0.0, 0.0, 0.0, 0.0, 0.0, 0.0, 0.0, 0.0, 0.0, 0.0, 0.0, 0.0, 0.0, 0.0, 0.0, 0.0, 0.0006037711282260716, 0.0026985169388353825, 0.006376743782311678, 0.0, 0.0, 0.0, 0.0, 0.0, 0.0, 0.0, 0.0, 0.0, 0.0, 0.0, 0.0, 0.0, 0.0, 0.0, 0.0, 0.0, 0.0, 0.0, 0.0, 0.0, 0.0, 0.0, 0.0, 0.0, 0.0, 0.0, 0.0, 0.0, 0.0, 0.0, 0.0, 0.0, 0.0, 0.0, 0.0, 0.0, 0.0, 0.0, 0.0, 0.0, 0.0, 0.0, 0.0, 0.0, 0.0, 0.0, 0.0, 0.0],
[0.0, 0.0, 0.0, 0.0, 0.0, 0.0, 0.0, 0.0, 0.0, 0.0, 0.0, 0.0, 0.0, 0.0, 0.0, 0.0, 0.0, 0.0, 0.0, 0.0, 0.0, 0.0, 0.0, 0.0, 0.0, 0.0, 0.0, 0.0, 0.0, 0.004205083474516869, 0.0037929057143628597, 0.0, 0.0, 0.004243325907737017, 0.006230688188225031, 0.003117657033726573, 0.002755117369815707, 0.0, 0.0, 0.0, 0.0, 0.0, 0.0, 0.0, 0.0, 0.0, 0.0, 0.0, 0.0, 0.0, 0.0, 0.0, 0.0, 0.0, 0.0, 0.0, 0.0, 0.0, 0.0, 0.0, 0.0, 0.0, 0.0, 0.0, 0.0, 0.0, 0.0, 0.0, 0.0, 0.0, 0.0, 0.0, 0.0, 0.0, 0.0, 0.0, 0.0, 0.0, 0.0, 0.0, 0.0, 0.0, 0.0, 0.0, 0.0, 0.0, 0.0, 0.0, 0.0, 0.0, 0.0, 0.0, 0.0, 0.0, 0.0, 0.0, 0.0, 0.0, 0.0, 0.0, 0.0, 0.0, 0.0, 0.0, 0.0, 0.0, 0.0, 0.0, 0.0, 0.0, 0.0, 0.0, 0.0, 0.0, 0.0, 0.0, 0.0, 0.0, 0.0, 0.0, 0.0, 0.0, 0.0, 0.0, 0.0, 0.0, 0.0, 0.0, 0.0, 0.0, 0.0, 0.0, 0.0, 0.0, 0.0, 0.0, 0.0, 0.0, 0.0, 0.0, 0.0, 0.0, 0.0, 0.0, 0.0, 0.0, 0.0004892825381830335, 0.002513456391170621, 0.0031178954523056746, 0.0, 0.0, 0.0, 0.0, 0.0, 0.0, 0.0, 0.0, 0.0, 0.0, 0.0, 0.0, 0.0, 0.0, 0.0, 0.0, 0.0, 0.0, 0.0, 0.0, 0.0, 0.0, 0.0, 0.0, 0.0, 0.0, 0.0, 0.0, 0.0, 0.0, 0.0, 0.0, 0.0, 0.0, 0.0, 0.0, 0.0, 0.0, 0.0, 0.0, 0.0, 0.0, 0.0, 0.0, 0.0, 0.0, 0.0, 0.0, 0.0, 0.0, 0.0],
[0.0, 0.0, 0.0, 0.0, 0.0, 0.0, 0.0, 0.0, 0.0, 0.0, 0.0, 0.0, 0.0, 0.0, 0.0, 0.0, 0.0, 0.0, 0.0, 0.0, 0.0, 0.0, 0.0, 0.0, 0.0, 0.0, 0.0, 0.0, 0.0, 0.0, 0.0, 0.0, 0.0, 0.0, 0.0, 0.0, 0.0, 0.0, 0.0, 0.0, 0.0, 0.0, 0.0, 0.0, 0.0, 0.0, 0.0, 0.0, 0.0, 0.0, 0.0, 0.0, 0.0, 0.0, 0.0, 0.0, 0.0, 0.0, 0.0, 0.0, 0.0, 0.0, 0.0, 0.0, 0.0, 0.0, 0.0, 0.0, 0.0, 0.0, 0.0, 0.0, 0.0, 0.0, 0.0, 0.0, 0.0, 0.0, 0.0, 0.0, 0.0, 0.0, 0.0, 0.0, 0.0, 0.0, 0.0, 0.0, 0.0, 0.0, 0.0, 0.0, 0.0, 0.0, 0.0, 0.0, 0.0, 0.0, 0.0, 0.0, 0.0, 0.0, 0.0, 0.0, 0.0, 0.0, 0.0, 0.0, 0.0, 0.0, 0.0, 0.0, 0.0, 0.0, 0.0, 0.0, 0.0, 0.0, 0.0, 0.0, 0.0, 0.0, 0.0, 0.0, 0.0, 0.0, 0.0, 0.0, 0.0, 0.0, 0.0, 0.0, 0.0, 0.0, 0.0, 0.0, 0.0, 0.0, 0.0, 0.0, 0.0, 0.0, 0.0, 0.0, 0.0, 0.0, 0.0, 0.0, 0.0, 0.0, 0.0, 0.0, 0.0, 0.0, 0.0, 0.0, 0.0, 0.0, 0.0, 0.0, 0.0, 0.0, 0.0025783537421375513, 0.010708522982895374, 0.0, 0.0025590418372303247, 0.011823606677353382, 0.01886611245572567, 0.04578094556927681, 0.04339294135570526, 0.03386697918176651, 0.028535082936286926, 0.028571367263793945, 0.04021887481212616, 0.05079955980181694, 0.055599648505449295, 0.054517555981874466, 0.042360443621873856, 0.028583860024809837, 0.024346591904759407, 0.034323643893003464, 0.042099807411432266, 0.04130382463335991, 0.0307617224752903, 0.023111343383789062, 0.019113682210445404, 0.024444054812192917, 0.02612614817917347, 0.032221030443906784, 0.027023741975426674, 0.015378331765532494, 0.012080956250429153, 0.01541514415293932, 0.020666025578975677, 0.014810705557465553, 0.01540370099246502, 0.021640349179506302, 0.024779794737696648, 0.02175908163189888, 0.021681740880012512],
[0.0204346664249897, 0.0, 0.0, 0.0, 0.0, 0.0, 0.0, 0.0, 0.0, 0.0, 0.0, 0.0, 0.0, 0.0, 0.0, 0.0, 0.0, 0.0, 0.0, 0.0, 0.0033056733664125204, 0.010515403933823109, 0.008402777835726738, 0.008532571606338024, 0.009189127944409847, 0.014406060799956322, 0.01848611980676651, 0.015658091753721237, 0.007978152483701706, 0.004746341612190008, 0.007690669037401676, 0.0001979827939067036, 0.0, 0.0, 0.0, 0.0, 0.0, 0.0, 0.0, 0.0, 0.0, 0.0, 0.0, 0.0, 0.0, 0.0, 0.0, 0.0, 0.0, 0.0, 0.0, 0.0, 0.0, 0.0, 0.0, 0.0, 0.0, 0.0, 0.0, 0.0, 0.0, 0.0, 0.0, 0.0, 0.0, 0.0, 0.0, 0.0, 0.0, 0.0, 0.0, 0.0, 0.0, 0.0, 0.0, 0.0, 0.0, 0.0, 0.0, 0.0, 0.0, 0.0, 0.0, 0.0, 0.0, 0.0, 0.0, 0.0, 0.0, 0.0, 0.0, 0.0, 0.0, 0.0, 0.0, 0.0, 0.0, 0.0, 0.0, 0.0, 0.0, 0.0, 0.0, 0.0, 0.0, 0.0, 0.0, 0.0, 0.0, 0.0, 0.0, 0.0, 0.0, 0.0, 0.0, 0.0, 0.0, 0.0, 0.0, 0.0, 0.0, 0.0, 0.0, 0.0, 0.0, 0.0, 0.0, 0.0, 0.0, 0.0, 0.0, 0.0, 0.0, 0.0, 0.0, 0.0, 0.0, 0.0, 0.0, 0.0, 0.0, 0.0, 0.0, 0.0, 0.0, 0.0, 0.0, 0.0, 0.0, 0.0, 0.0, 0.0, 0.0, 0.0, 0.0, 0.0, 0.0, 0.0, 0.0, 0.0, 0.0, 0.0, 0.0, 0.0, 0.0, 0.0, 0.0, 0.0, 0.0, 0.0, 0.0, 0.0, 0.0, 0.0, 0.0, 0.0, 0.0, 0.0, 0.0, 0.0, 0.0, 0.0, 0.0, 0.0, 0.0, 0.0, 0.0, 0.0, 0.0, 0.0, 0.0, 0.0, 0.0, 0.0, 0.0009860991267487407, 0.0141464713960886, 0.017544033005833626, 0.019578170031309128, 0.024323413148522377, 0.018351316452026367],
[0.026271870359778404, 0.08361192047595978, 0.0811467096209526, 0.06771602481603622, 0.046462588012218475, 0.023188352584838867, 0.01775655522942543, 0.022388268262147903, 0.012074995785951614, 0.008397293277084827, 0.006634663790464401, 0.0012620448833331466, 0.005512238014489412, 0.008973550982773304, 0.011919306591153145, 0.015123939141631126, 0.019041873514652252, 0.023148393258452415, 0.022110745310783386, 0.020501136779785156, 0.011686421930789948, 0.004105997271835804, 0.008497189730405807, 0.004770517349243164, 0.005310583394020796, 0.012335538864135742, 0.013856886886060238, 0.011841821484267712, 0.007475424557924271, 0.010782909579575062, 0.004081296734511852, 0.0, 0.00011229514348087832, 0.0, 0.0, 0.0, 0.0, 0.0, 0.0, 0.0, 0.0, 0.0, 0.0, 0.00019278524268884212, 0.0057617188431322575, 0.0, 0.0051780217327177525, 0.013940286822617054, 0.019915249198675156, 0.01708688773214817, 0.012847851030528545, 0.0, 0.0, 0.0, 0.0, 0.0, 0.0, 0.0, 0.0, 0.0, 0.0, 0.0, 0.0, 0.0, 0.0, 0.0, 0.0, 0.0, 0.0, 0.0, 0.0, 0.0, 0.0, 0.0, 0.0, 0.0, 0.0, 0.0, 0.0, 0.0, 0.0, 0.0, 0.0, 0.0, 0.0, 0.0, 0.0, 0.0, 0.0, 0.0, 0.0, 0.0, 0.0, 0.0, 0.0, 0.0, 0.0, 0.0, 0.0, 0.0, 0.0, 0.0, 0.0, 0.0, 0.0, 0.0, 0.0, 0.0, 0.0, 0.0, 0.0, 0.0, 0.0, 0.0, 0.0, 0.0, 0.0, 0.0, 0.0, 0.0, 0.0, 0.0, 0.0, 0.0, 0.0, 0.0, 0.0, 0.0, 0.0, 0.0, 0.0, 0.0, 0.0, 0.0, 0.0, 0.0, 0.0, 0.0, 0.0, 0.0, 0.0, 0.0, 0.0, 0.0, 0.0, 0.0, 0.0, 0.0, 0.0, 0.0, 0.0, 0.0, 0.0, 0.0, 0.0, 0.0, 0.0, 0.0, 0.0, 0.0, 0.0, 0.0, 0.0, 0.0, 0.0, 0.0, 0.002518033841624856, 0.017182063311338425, 0.006224155891686678, 0.001776361488737166, 0.011172532103955746, 0.02203216589987278, 0.025082256644964218, 0.020915841683745384, 0.021130846813321114, 0.021332835778594017, 0.02331996150314808, 0.022205734625458717, 0.010236882604658604, 0.0, 0.001694869832135737, 0.0, 0.0, 0.0, 0.0, 0.0, 0.0, 0.0, 0.0, 0.0, 0.0, 0.0, 0.013131712563335896, 0.009607505984604359, 0.0025065424852073193, 0.0020050047896802425, 0.006960581988096237, 0.0036525726318359375, 0.008076907135546207, 0.008532524108886719]]ABDEFGHIJ